Time (s), Ry (N),,,,,,,,n,Sampling Rate,mass (kg)
0,632.618022600152,,,,,,,,542,2000,60.7558808804872
0.0005,635.264434684824
0.001,637.961951501145
0.0015,640.711520301148
0.002,643.514047062378
0.0025,646.370391268139
0.003,649.281361259619
0.0035,652.247710197741
0.004,655.270132681727
0.0045,658.349262081334
0.005,661.485668644768
0.0055,664.679858438778
0.006,667.93227315772
0.0065,671.2432908041
0.007,674.613227197354
0.0075,678.042338217009
0.008,681.530822639136
0.0085,685.07882538962
0.009,688.686441020787
0.00950000000000001,692.353717222525
0.01,696.080658204252
0.0105,699.867227825324
0.011,703.71335240073
0.0115,707.618923157459
0.012,711.583798355754
0.0125,715.607805111901
0.013,719.690740961061
0.0135,723.832375179299
0.014,728.032449846007
0.0145,732.290680576649
0.015,736.606756799096
0.0155,740.980341393698
0.016,745.411069477643
0.0165,749.898546097417
0.017,754.442342607345
0.0175,759.041991562657
0.018,763.696980043764
0.0185,768.406741450982
0.019,773.170645957124
0.0195,777.987989965033
0.02,782.857985070222
0.0205,787.779747155411
0.021,792.752286324628
0.0215,797.774498404772
0.022,802.845158693642
0.0225,807.962918515979
0.023,813.12630497263
0.0235,818.333724050809
0.024,823.583467029683
0.0245,828.87371989181
0.025,834.202575262787
0.0255,839.568046268667
0.026,844.968081635428
0.0265,850.400581359097
0.027,855.863412341747
0.0275,861.354423502228
0.028,866.87146001099
0.0285,872.412376444351
0.029,877.975048785681
0.0295,883.557385305208
0.03,889.157336418744
0.0305,894.772903657989
0.031,900.402147886104
0.0315,906.043196870765
0.032,911.694252292894
0.0325,917.353596231768
0.033,923.019597132517
0.0335,928.690715233237
0.034,934.365507405855
0.0345,940.042631345393
0.035,945.720849023584
0.0355,951.399029302837
0.036,957.076149585318
0.0365,962.751296351398
0.037,968.423664426424
0.0375,974.092554810113
0.038,979.757370914843
0.0385,985.417613092308
0.039,991.072871385058
0.0395,996.72281651983
0.04,1002.36718925939
0.0405,1008.00578834176
0.041,1013.63845734994
0.0415,1019.26507096046
0.042,1024.88552110154
0.0425,1030.49970360243
0.043,1036.10750592331
0.0435,1041.70879651841
0.044,1047.30341630292
0.0445,1052.8911725741
0.045,1058.47183558962
0.0455,1064.04513784576
0.046,1069.6107759403
0.0465,1075.16841476386
0.047,1080.71769365068
0.0475,1086.25823404278
0.048,1091.78964818288
0.0485,1097.31154834911
0.049,1102.82355617437
0.0495,1108.32531164631
0.05,1113.81648145268
0.0505,1119.29676641266
0.051,1124.76590781086
0.0515,1130.22369252193
0.052,1135.66995687699
0.0525,1141.10458927661
0.053,1146.52753159818
0.0535,1151.93877947838
0.054,1157.33838157283
0.0545,1162.72643790586
0.055,1168.1030974224
0.0555,1173.46855484268
0.056,1178.82304689952
0.0565,1184.1668480111
0.057,1189.50026541167
0.0575,1194.82363373584
0.058,1200.13730903178
0.0585,1205.44166217248
0.059,1210.73707164497
0.0595,1216.023915729
0.06,1221.30256412827
0.0605,1226.57336918728
0.061,1231.83665690813
0.0615,1237.09271806583
0.062,1242.34179979603
0.0625,1247.58409808486
0.063,1252.81975161426
0.0635,1258.04883740098
0.064,1263.27136860822
0.0645,1268.48729480715
0.065,1273.69650482726
0.0655,1278.89883217112
0.066,1284.09406279604
0.0665,1289.28194489902
0.067,1294.46220020033
0.0675,1299.63453611923
0.068,1304.79865818393
0.0685,1309.95428202045
0.069,1315.10114432074
0.0695,1320.23901228872
0.07,1325.36769119339
0.0705,1330.48702980226
0.071,1335.59692361277
0.0715000000000001,1340.69731592902
0.0720000000000001,1345.78819693758
0.0725000000000001,1350.86960101348
0.0730000000000001,1355.94160253598
0.0735000000000001,1361.00431051565
0.0740000000000001,1366.05786233469
0.0745000000000001,1371.10241688708
0.0750000000000001,1376.13814737884
0.0755000000000001,1381.16523401656
0.0760000000000001,1386.18385677763
0.0765000000000001,1391.19418842082
0.0770000000000001,1396.19638786446
0.0775000000000001,1401.19059403266
0.0780000000000001,1406.17692024894
0.0785000000000001,1411.15544924326
0.0790000000000001,1416.12622882966
0.0795000000000001,1421.0892683068
0.0800000000000001,1426.04453562869
0.0805000000000001,1430.99195538242
0.0810000000000001,1435.93140759221
0.0815000000000001,1440.86272734096
0.0820000000000001,1445.78570516383
0.0825000000000001,1450.7000881258
0.0830000000000001,1455.60558145316
0.0835000000000001,1460.50185055301
0.0840000000000001,1465.38852323201
0.0845000000000001,1470.2651919186
0.0850000000000001,1475.13141570426
0.0855000000000001,1479.9867220467
0.0860000000000001,1484.83060801768
0.0865000000000001,1489.66254102597
0.0870000000000001,1494.48195899481
0.0875000000000001,1499.28827001938
0.0880000000000001,1504.08085156667
0.0885000000000001,1508.859049306
0.0890000000000001,1513.6221756692
0.0895000000000001,1518.36950823643
0.0900000000000001,1523.10028802599
0.0905000000000001,1527.81371773914
0.0910000000000001,1532.50895997813
0.0915000000000001,1537.18513542306
0.0920000000000001,1541.84132092954
0.0925000000000001,1546.47654749725
0.0930000000000001,1551.08979806662
0.0935000000000001,1555.68000512556
0.0940000000000001,1560.24604815026
0.0945000000000001,1564.78675095811
0.0950000000000001,1569.30087911034
0.0955000000000001,1573.78713755876
0.0960000000000001,1578.24416877754
0.0965000000000001,1582.67055164988
0.0970000000000001,1587.06480138622
0.0975000000000001,1591.42537073244
0.0980000000000001,1595.7506526837
0.0985000000000001,1600.03898485612
0.0990000000000001,1604.2886555882
0.0995000000000001,1608.49791175614
0.1,1612.66496819782
0.1005,1616.78801855867
0.101,1620.8652473043
0.1015,1624.89484259593
0.102,1628.87500969743
0.1025,1632.80398457786
0.103,1636.68004738977
0.1035,1640.5015355362
0.104,1644.26685608422
0.1045,1647.9744973338
0.105,1651.62303940288
0.1055,1655.21116373841
0.106,1658.73766150688
0.1065,1662.20144085481
0.107,1665.60153306015
0.1075,1668.93709761924
0.108,1672.20742633063
0.1085,1675.41194644531
0.109,1678.55022295147
0.1095,1681.62196004938
0.11,1684.62700184705
0.1105,1687.56533227356
0.111,1690.43707416521
0.1115,1693.24248743856
0.112,1695.98196622941
0.1125,1698.65603485649
0.113,1701.26534246979
0.1135,1703.8106562698
0.114,1706.29285323695
0.1145,1708.7129103859
0.115,1711.07189365129
0.1155,1713.37094560873
0.116,1715.61127232639
0.1165,1717.79412971731
0.117,1719.92080981051
0.1175,1721.99262737417
0.118,1724.01090730368
0.1185,1725.97697313382
0.119,1727.89213695195
0.1195,1729.75769088769
0.12,1731.57490024374
0.1205,1733.34499822372
0.121,1735.06918211632
0.1215,1736.7486107189
0.122,1738.38440273423
0.1225,1739.9776358533
0.123,1741.52934624517
0.1235,1743.04052820854
0.124,1744.5121337942
0.1245,1745.94507227681
0.125,1747.34020943187
0.1255,1748.69836665319
0.126,1750.02032002062
0.1265,1751.30679949174
0.127,1752.55848843843
0.1275,1753.77602377395
0.128,1754.95999691381
0.1285,1756.11095577965
0.129,1757.22940798887
0.1295,1758.31582527495
0.13,1759.37064906096
0.1305,1760.39429697108
0.131,1761.38716992795
0.1315,1762.3496593626
0.132,1763.28215397639
0.1325,1764.18504545518
0.133,1765.05873255317
0.1335,1765.90362304187
0.134,1766.72013315173
0.1345,1767.50868430949
0.135,1768.26969717548
0.1355,1769.00358319142
0.136,1769.71073404082
0.1365,1770.39150958172
0.137,1771.0462249232
0.1375,1771.67513737347
0.138,1772.27843398915
0.1385,1772.85622040442
0.139,1773.4085115265
0.1395,1773.93522455858
0.14,1774.43617466813
0.1405,1774.91107346678
0.141,1775.35953031931
0.1415,1775.7810563602
0.142,1776.17507097272
0.1425,1776.54091037976
0.143,1776.87783790857
0.1435,1777.1850554242
0.144,1777.46171537783
0.1445,1777.7069328877
0.145,1777.91979726424
0.1455,1778.09938240811
0.146,1778.24475555525
0.1465,1778.35498391531
0.147,1778.42913885119
0.1475,1778.46629737205
0.148,1778.46554085487
0.1485,1778.42595106026
0.149,1778.34660365678
0.1495,1778.22655960259
0.15,1778.06485484594
0.1505,1777.86048888843
0.151,1777.61241280498
0.1515,1777.31951733137
0.152,1776.98062161611
0.1525,1776.59446319433
0.153,1776.15968968084
0.1535,1775.67485260355
0.154,1775.13840370972
0.1545,1774.54869397869
0.155,1773.90397546582
0.1555,1773.20240598456
0.156,1772.44205650898
0.1565,1771.62092105095
0.157,1770.7369286431
0.1575,1769.78795694954
0.158,1768.77184694314
0.1585,1767.68641804244
0.159,1766.52948310062
0.1595,1765.29886268798
0.16,1763.99239820457
0.1605,1762.60796349267
0.161,1761.14347477397
0.1615,1759.59689889664
0.162,1757.96626002233
0.1625,1756.24964499752
0.163,1754.44520772429
0.1635,1752.55117286719
0.164,1750.56583920672
0.1645,1748.48758288375
0.165,1746.31486068464
0.1655,1744.04621341096
0.166,1741.68026927479
0.1665,1739.21574717743
0.167,1736.65145967609
0.1675,1733.98631542691
0.168,1731.2193209149
0.1685,1728.34958133692
0.169,1725.37630058333
0.1695,1722.29878035394
0.17,1719.11641852937
0.1705,1715.82870698559
0.171,1712.43522907653
0.1715,1708.93565701096
0.172,1705.32974931604
0.1725,1701.61734851812
0.173,1697.79837909345
0.1735,1693.87284566273
0.174,1689.84083134026
0.1745,1685.70249611265
0.175,1681.45807512218
0.1755,1677.10787676653
0.176,1672.65228059257
0.1765,1668.09173504505
0.177,1663.42675521399
0.1775,1658.65792078895
0.178,1653.78587445847
0.1785,1648.81132097585
0.179,1643.73502704449
0.1795,1638.55782205801
0.18,1633.28059957384
0.1805,1627.90431921869
0.181,1622.43000854277
0.1815,1616.85876417814
0.182,1611.19175153816
0.1825,1605.43020223859
0.183,1599.57540843745
0.1835,1593.62871338852
0.184,1587.59149767691
0.1845,1581.46516084642
0.185,1575.25109842025
0.1855,1568.95067463798
0.186,1562.56519156118
0.1865,1556.09585551311
0.187,1549.5437420945
0.1875,1542.9097612379
0.188,1536.19462391118
0.1885,1529.39881214435
0.189,1522.52255402316
0.1895,1515.56580516472
0.19,1508.52823796488
0.1905,1501.40923959395
0.191,1494.20791933113
0.1915,1486.92312539317
0.192,1479.55347095699
0.1925,1472.09736863202
0.193,1464.55307223814
0.1935,1456.91872441565
0.194,1449.19240835642
0.1945,1441.37220181123
0.195,1433.45623149724
0.1955,1425.44272609522
0.196,1417.33006617229
0.1965,1409.11682957283
0.197,1400.80183106696
0.1975,1392.38415531121
0.198,1383.86318244219
0.1985,1375.23860587663
0.199,1366.51044212174
0.1995,1357.6790326046
0.2,1348.74503770773
0.2005,1339.70942335648
0.201,1330.57344064664
0.2015,1321.33859913556
0.202,1312.00663455039
0.2025,1302.57947179366
0.203,1293.05918424504
0.2035,1283.44795045883
0.204,1273.74800942858
0.2045,1263.96161561848
0.205,1254.09099493623
0.2055,1244.13830273652
0.206,1234.10558480151
0.2065,1223.99474205274
0.207,1213.80749952619
0.2075,1203.54537991113
0.208,1193.20968173877
0.2085,1182.80146213058
0.209,1172.32152389661
0.2095,1161.77040671937
0.21,1151.14838216806
0.2105,1140.45545235049
0.211,1129.69135210776
0.2115,1118.85555476529
0.212,1107.94728154893
0.2125,1096.96551483253
0.213,1085.90901538699
0.2135,1074.77634373991
0.214,1063.56588562933
0.2145,1052.27588135412
0.215,1040.90445860454
0.2155,1029.44966812444
0.216,1017.90952133996
0.2165,1006.28202891739
0.217,994.56523911089
0.2175,982.75727474759
0.218,970.856367780885
0.2185,958.86089051879
0.219,946.769382885975
0.2195,934.580575378338
0.22,922.293407683249
0.2205,909.907043230354
0.221,897.420880174123
0.2215,884.834559465679
0.222,872.147970735812
0.2225,859.361256685323
0.223,846.474816578344
0.2235,833.489309284614
0.224,820.405656149687
0.2245,807.225043819674
0.225,793.948927036898
0.2255,780.579031372953
0.226,767.117355882489
0.2265,753.566175738839
0.227,739.928045034415
0.2275,726.20580007051
0.228,712.402563594951
0.2285,698.521750546023
0.229,684.567075906086
0.2295,670.54256524563
0.23,656.452568444033
0.2305,642.301776911792
0.231,628.095244421749
0.2315,613.838411400092
0.232,599.53713224997
0.2325,585.197705000319
0.233,570.826902307749
0.2335,556.432002605744
0.234,542.02082000642
0.2345,527.601731426043
0.235,513.183699334297
0.2355,498.776288523785
0.236,484.38967536266
0.2365,470.034648128588
0.237,455.722597222604
0.2375,441.465494319371
0.238,427.275859815288
0.2385,413.166718274445
0.239,399.151541928929
0.2395,385.244182648163
0.24,371.458793136256
0.2405,357.809738433202
0.241,344.311499075271
0.2415,330.978567506062
0.242,317.825339520284
0.2425,304.866002668441
0.243,292.114423655044
0.2435,279.584036828843
0.244,267.287735892734
0.2445,255.237770953159
0.245,243.445652980523
0.2455,231.922067657529
0.246,220.676800443196
0.2465,209.718674468196
0.247,199.055502595089
0.2475,188.694054621805
0.248,178.640040181446
0.2485,168.898107406949
0.249,159.471856904995
0.2495,150.363870047045
0.25,141.575750069963
0.2505,133.108174019666
0.251,124.960953202067
0.2515,117.133099553287
0.252,109.622895222914
0.2525,102.427962685561
0.253,95.5453328513327
0.2535,88.9715089195219
0.254,82.7025240898547
0.2545,76.7339916864168
0.255,71.0611467349155
0.2555,65.6788785392134
0.256,60.5817543049681
0.2565,55.7640343355477
0.257,51.2196797586864
0.2575,46.9423541139727
0.258,42.9254204259424
0.2585,39.1619355932395
0.259,35.6446440331857
0.2595,32.365972530151
0.26,29.3180281472142
0.2605,26.4926008799307
0.261,23.881172468162
0.2615,21.4749324490827
0.262,19.2648021460071
0.2625,17.2414668602133
0.263,15.3954160857119
0.2635,13.7169911219415
0.264,12.1964390410798
0.2645,10.8239716004894
0.265,9.58982740115617
0.2655,8.48433540050169
0.266,7.49797780701508
0.2665,6.6214504208076
0.267,5.8457186351013
0.2675,5.16206756619471
0.268,4.56214511285574
0.2685,4.03799713354511
0.269,3.5820943410842
0.2695,3.18735091849484
0.27,2.84713522821615
